omega,S_connected_symmetrized
-3.558281224118622532e+01,8.989510924713903399e-06
-3.556502083506563139e+01,8.438053200126363133e-06
-3.554722942894503745e+01,6.978480079854872687e-06
-3.552943802282444352e+01,5.085010059216132930e-06
-3.551164661670384959e+01,3.264639108599055194e-06
-3.549385521058326276e+01,1.846676960066647411e-06
-3.547606380446266883e+01,9.203628323241499468e-07
-3.545827239834207489e+01,4.041472261385985966e-07
-3.544048099222148096e+01,1.563624699669038735e-07
-3.542268958610088703e+01,5.330130364613791058e-08
-3.540489817998029309e+01,1.600868021999978651e-08
-3.538710677385969916e+01,4.236289361732060887e-09
-3.536931536773910523e+01,0.000000000000000000e+00
-3.535152396161851840e+01,0.000000000000000000e+00
-3.533373255549792447e+01,0.000000000000000000e+00
-3.531594114937733053e+01,0.000000000000000000e+00
-3.529814974325673660e+01,0.000000000000000000e+00
-3.528035833713614267e+01,0.000000000000000000e+00
-3.526256693101554873e+01,0.000000000000000000e+00
-3.524477552489495480e+01,0.000000000000000000e+00
-3.522698411877436087e+01,0.000000000000000000e+00
-3.520919271265376693e+01,0.000000000000000000e+00
-3.519140130653318010e+01,0.000000000000000000e+00
-3.517360990041258617e+01,0.000000000000000000e+00
-3.515581849429199224e+01,0.000000000000000000e+00
-3.513802708817139830e+01,0.000000000000000000e+00
-3.512023568205080437e+01,0.000000000000000000e+00
-3.510244427593021044e+01,0.000000000000000000e+00
-3.508465286980961650e+01,0.000000000000000000e+00
-3.506686146368902257e+01,0.000000000000000000e+00
-3.504907005756842864e+01,0.000000000000000000e+00
-3.503127865144784181e+01,0.000000000000000000e+00
-3.501348724532724788e+01,0.000000000000000000e+00
-3.499569583920665394e+01,0.000000000000000000e+00
-3.497790443308606001e+01,0.000000000000000000e+00
-3.496011302696546608e+01,0.000000000000000000e+00
-3.494232162084487214e+01,0.000000000000000000e+00
-3.492453021472427821e+01,0.000000000000000000e+00
-3.490673880860368428e+01,0.000000000000000000e+00
-3.488894740248309745e+01,0.000000000000000000e+00
-3.487115599636250352e+01,0.000000000000000000e+00
-3.485336459024190958e+01,0.000000000000000000e+00
-3.483557318412131565e+01,0.000000000000000000e+00
-3.481778177800072172e+01,0.000000000000000000e+00
-3.479999037188012778e+01,0.000000000000000000e+00
-3.478219896575953385e+01,0.000000000000000000e+00
-3.476440755963893992e+01,0.000000000000000000e+00
-3.474661615351834598e+01,0.000000000000000000e+00
-3.472882474739775915e+01,0.000000000000000000e+00
-3.471103334127716522e+01,0.000000000000000000e+00
-3.469324193515657129e+01,0.000000000000000000e+00
-3.467545052903597735e+01,0.000000000000000000e+00
-3.465765912291538342e+01,0.000000000000000000e+00
-3.463986771679478949e+01,0.000000000000000000e+00
-3.462207631067419555e+01,0.000000000000000000e+00
-3.460428490455360162e+01,0.000000000000000000e+00
-3.458649349843300769e+01,0.000000000000000000e+00
-3.456870209231242086e+01,0.000000000000000000e+00
-3.455091068619182693e+01,0.000000000000000000e+00
-3.453311928007123299e+01,0.000000000000000000e+00
-3.451532787395063906e+01,0.000000000000000000e+00
-3.449753646783004513e+01,0.000000000000000000e+00
-3.447974506170945119e+01,0.000000000000000000e+00
-3.446195365558885726e+01,0.000000000000000000e+00
-3.444416224946826333e+01,0.000000000000000000e+00
-3.442637084334767650e+01,0.000000000000000000e+00
-3.440857943722708256e+01,0.000000000000000000e+00
-3.439078803110648863e+01,0.000000000000000000e+00
-3.437299662498589470e+01,0.000000000000000000e+00
-3.435520521886530076e+01,0.000000000000000000e+00
-3.433741381274470683e+01,0.000000000000000000e+00
-3.431962240662411290e+01,0.000000000000000000e+00
-3.430183100050351896e+01,0.000000000000000000e+00
-3.428403959438292503e+01,0.000000000000000000e+00
-3.426624818826233820e+01,0.000000000000000000e+00
-3.424845678214174427e+01,0.000000000000000000e+00
-3.423066537602115034e+01,0.000000000000000000e+00
-3.421287396990055640e+01,0.000000000000000000e+00
-3.419508256377996247e+01,0.000000000000000000e+00
-3.417729115765936854e+01,0.000000000000000000e+00
-3.415949975153877460e+01,0.000000000000000000e+00
-3.414170834541818067e+01,0.000000000000000000e+00
-3.412391693929758674e+01,0.000000000000000000e+00
-3.410612553317699991e+01,0.000000000000000000e+00
-3.408833412705640598e+01,0.000000000000000000e+00
-3.407054272093581204e+01,0.000000000000000000e+00
-3.405275131481521811e+01,0.000000000000000000e+00
-3.403495990869462418e+01,0.000000000000000000e+00
-3.401716850257403024e+01,0.000000000000000000e+00
-3.399937709645343631e+01,0.000000000000000000e+00
-3.398158569033284238e+01,0.000000000000000000e+00
-3.396379428421225555e+01,0.000000000000000000e+00
-3.394600287809166161e+01,0.000000000000000000e+00
-3.392821147197106768e+01,0.000000000000000000e+00
-3.391042006585047375e+01,0.000000000000000000e+00
-3.389262865972987981e+01,0.000000000000000000e+00
-3.387483725360928588e+01,0.000000000000000000e+00
-3.385704584748869195e+01,0.000000000000000000e+00
-3.383925444136809801e+01,0.000000000000000000e+00
-3.382146303524750408e+01,0.000000000000000000e+00
-3.380367162912691725e+01,0.000000000000000000e+00
-3.378588022300632332e+01,0.000000000000000000e+00
-3.376808881688572939e+01,0.000000000000000000e+00
-3.375029741076513545e+01,0.000000000000000000e+00
-3.373250600464454152e+01,0.000000000000000000e+00
-3.371471459852394759e+01,0.000000000000000000e+00
-3.369692319240335365e+01,0.000000000000000000e+00
-3.367913178628275972e+01,0.000000000000000000e+00
-3.366134038016217289e+01,0.000000000000000000e+00
-3.364354897404157896e+01,0.000000000000000000e+00
-3.362575756792098503e+01,0.000000000000000000e+00
-3.360796616180039109e+01,0.000000000000000000e+00
-3.359017475567979716e+01,0.000000000000000000e+00
-3.357238334955920322e+01,0.000000000000000000e+00
-3.355459194343860929e+01,0.000000000000000000e+00
-3.353680053731801536e+01,0.000000000000000000e+00
-3.351900913119742142e+01,0.000000000000000000e+00
-3.350121772507683460e+01,0.000000000000000000e+00
-3.348342631895624066e+01,0.000000000000000000e+00
-3.346563491283564673e+01,0.000000000000000000e+00
-3.344784350671505280e+01,0.000000000000000000e+00
-3.343005210059445886e+01,0.000000000000000000e+00
-3.341226069447386493e+01,0.000000000000000000e+00
-3.339446928835327100e+01,0.000000000000000000e+00
-3.337667788223267706e+01,7.280621518997546722e-12
-3.335888647611208313e+01,2.751302655416970880e-11
-3.334109506999149630e+01,9.160531426919055345e-11
-3.332330366387090237e+01,2.687295098130860816e-10
-3.330551225775030844e+01,6.945802659393393098e-10
-3.328772085162971450e+01,1.581764811166021138e-09
-3.326992944550912057e+01,3.173757707759855875e-09
-3.325213803938852664e+01,5.610712516604191573e-09
-3.323434663326793270e+01,8.739259880564683276e-09
-3.321655522714733877e+01,1.199343762922600243e-08
-3.319876382102674484e+01,1.450190637642560040e-08
-3.318097241490615801e+01,1.544965914627131042e-08
-3.316318100878556407e+01,1.450190637642560040e-08
-3.314538960266497014e+01,1.199343762922600243e-08
-3.312759819654437621e+01,8.739259880564683276e-09
-3.310980679042378227e+01,5.610712516604191573e-09
-3.309201538430318834e+01,3.173757707759855875e-09
-3.307422397818259441e+01,1.581764811166021138e-09
-3.305643257206200047e+01,6.945802659393393098e-10
-3.303864116594141365e+01,2.687295098130860816e-10
-3.302084975982081971e+01,9.160531426919055345e-11
-3.300305835370022578e+01,2.751302655416970880e-11
-3.298526694757963185e+01,7.280621518997546722e-12
-3.296747554145903791e+01,0.000000000000000000e+00
-3.294968413533844398e+01,0.000000000000000000e+00
-3.293189272921785005e+01,0.000000000000000000e+00
-3.291410132309725611e+01,0.000000000000000000e+00
-3.289630991697666218e+01,0.000000000000000000e+00
-3.287851851085607535e+01,0.000000000000000000e+00
-3.286072710473548142e+01,0.000000000000000000e+00
-3.284293569861488749e+01,0.000000000000000000e+00
-3.282514429249429355e+01,0.000000000000000000e+00
-3.280735288637369962e+01,0.000000000000000000e+00
-3.278956148025310569e+01,0.000000000000000000e+00
-3.277177007413251175e+01,0.000000000000000000e+00
-3.275397866801191782e+01,0.000000000000000000e+00
-3.273618726189133099e+01,0.000000000000000000e+00
-3.271839585577073706e+01,0.000000000000000000e+00
-3.270060444965014312e+01,0.000000000000000000e+00
-3.268281304352954919e+01,0.000000000000000000e+00
-3.266502163740895526e+01,0.000000000000000000e+00
-3.264723023128836132e+01,0.000000000000000000e+00
-3.262943882516776739e+01,0.000000000000000000e+00
-3.261164741904717346e+01,0.000000000000000000e+00
-3.259385601292657952e+01,0.000000000000000000e+00
-3.257606460680599270e+01,0.000000000000000000e+00
-3.255827320068539876e+01,0.000000000000000000e+00
-3.254048179456480483e+01,0.000000000000000000e+00
-3.252269038844421090e+01,0.000000000000000000e+00
-3.250489898232361696e+01,0.000000000000000000e+00
-3.248710757620302303e+01,0.000000000000000000e+00
-3.246931617008242910e+01,0.000000000000000000e+00
-3.245152476396183516e+01,0.000000000000000000e+00
-3.243373335784124833e+01,0.000000000000000000e+00
-3.241594195172065440e+01,0.000000000000000000e+00
-3.239815054560006047e+01,0.000000000000000000e+00
-3.238035913947946653e+01,0.000000000000000000e+00
-3.236256773335887260e+01,0.000000000000000000e+00
-3.234477632723827867e+01,0.000000000000000000e+00
-3.232698492111768473e+01,0.000000000000000000e+00
-3.230919351499709080e+01,0.000000000000000000e+00
-3.229140210887649687e+01,0.000000000000000000e+00
-3.227361070275590293e+01,0.000000000000000000e+00
-3.225581929663531611e+01,0.000000000000000000e+00
-3.223802789051472217e+01,0.000000000000000000e+00
-3.222023648439412824e+01,0.000000000000000000e+00
-3.220244507827353431e+01,0.000000000000000000e+00
-3.218465367215294037e+01,0.000000000000000000e+00
-3.216686226603234644e+01,0.000000000000000000e+00
-3.214907085991175251e+01,0.000000000000000000e+00
-3.213127945379115857e+01,0.000000000000000000e+00
-3.211348804767057175e+01,0.000000000000000000e+00
-3.209569664154997781e+01,0.000000000000000000e+00
-3.207790523542938388e+01,0.000000000000000000e+00
-3.206011382930878995e+01,0.000000000000000000e+00
-3.204232242318819601e+01,0.000000000000000000e+00
-3.202453101706760208e+01,0.000000000000000000e+00
-3.200673961094700815e+01,0.000000000000000000e+00
-3.198894820482641776e+01,0.000000000000000000e+00
-3.197115679870582383e+01,0.000000000000000000e+00
-3.195336539258522990e+01,0.000000000000000000e+00
-3.193557398646463952e+01,0.000000000000000000e+00
-3.191778258034404558e+01,0.000000000000000000e+00
-3.189999117422345165e+01,0.000000000000000000e+00
-3.188219976810285772e+01,0.000000000000000000e+00
-3.186440836198226378e+01,0.000000000000000000e+00
-3.184661695586167340e+01,0.000000000000000000e+00
-3.182882554974107947e+01,0.000000000000000000e+00
-3.181103414362048554e+01,0.000000000000000000e+00
-3.179324273749989160e+01,0.000000000000000000e+00
-3.177545133137930122e+01,0.000000000000000000e+00
-3.175765992525870729e+01,0.000000000000000000e+00
-3.173986851913811336e+01,0.000000000000000000e+00
-3.172207711301751942e+01,0.000000000000000000e+00
-3.170428570689692549e+01,0.000000000000000000e+00
-3.168649430077633511e+01,0.000000000000000000e+00
-3.166870289465574118e+01,0.000000000000000000e+00
-3.165091148853514724e+01,0.000000000000000000e+00
-3.163312008241455331e+01,0.000000000000000000e+00
-3.161532867629396293e+01,0.000000000000000000e+00
-3.159753727017336900e+01,0.000000000000000000e+00
-3.157974586405277506e+01,0.000000000000000000e+00
-3.156195445793218113e+01,0.000000000000000000e+00
-3.154416305181158720e+01,0.000000000000000000e+00
-3.152637164569099681e+01,0.000000000000000000e+00
-3.150858023957040288e+01,0.000000000000000000e+00
-3.149078883344980895e+01,0.000000000000000000e+00
-3.147299742732921857e+01,0.000000000000000000e+00
-3.145520602120862463e+01,0.000000000000000000e+00
-3.143741461508803070e+01,9.148197783065856373e-08
-3.141962320896743677e+01,3.457048383459200027e-07
-3.140183180284684283e+01,1.151032958831577548e-06
-3.138404039672624890e+01,3.376622036321617448e-06
-3.136624899060565852e+01,8.727493432322309353e-06
-3.134845758448506459e+01,1.987508525348116327e-05
-3.133066617836447065e+01,3.987868776086925861e-05
-3.131287477224388027e+01,7.049934908975400154e-05
-3.129508336612328634e+01,1.098099628670522491e-04
-3.127729196000269241e+01,1.506991391390591220e-04
-3.125950055388209847e+01,1.822183826159278690e-04
-3.124170914776150454e+01,1.941270222360118531e-04
-3.122391774164091416e+01,1.822183826159278690e-04
-3.120612633552032023e+01,1.506991391390591220e-04
-3.118833492939972629e+01,1.098099628670522491e-04
-3.117054352327913591e+01,7.049934908975400154e-05
-3.115275211715854198e+01,3.987868776086925861e-05
-3.113496071103794804e+01,1.987508525348116327e-05
-3.111716930491735411e+01,8.727493432322309353e-06
-3.109937789879676018e+01,3.376622036321617448e-06
-3.108158649267616624e+01,1.151032958831577548e-06
-3.106379508655557586e+01,3.457048383459200027e-07
-3.104600368043498193e+01,9.148197783065856373e-08
-3.102821227431438800e+01,0.000000000000000000e+00
-3.101042086819379762e+01,0.000000000000000000e+00
-3.099262946207320368e+01,0.000000000000000000e+00
-3.097483805595260975e+01,0.000000000000000000e+00
-3.095704664983201582e+01,0.000000000000000000e+00
-3.093925524371142188e+01,0.000000000000000000e+00
-3.092146383759083150e+01,0.000000000000000000e+00
-3.090367243147023757e+01,0.000000000000000000e+00
-3.088588102534964364e+01,0.000000000000000000e+00
-3.086808961922904970e+01,0.000000000000000000e+00
-3.085029821310845932e+01,0.000000000000000000e+00
-3.083250680698786539e+01,0.000000000000000000e+00
-3.081471540086727146e+01,0.000000000000000000e+00
-3.079692399474667752e+01,0.000000000000000000e+00
-3.077913258862608359e+01,0.000000000000000000e+00
-3.076134118250549321e+01,0.000000000000000000e+00
-3.074354977638489927e+01,0.000000000000000000e+00
-3.072575837026430534e+01,0.000000000000000000e+00
-3.070796696414371496e+01,0.000000000000000000e+00
-3.069017555802312103e+01,0.000000000000000000e+00
-3.067238415190252709e+01,0.000000000000000000e+00
-3.065459274578193316e+01,0.000000000000000000e+00
-3.063680133966133923e+01,0.000000000000000000e+00
-3.061900993354074529e+01,0.000000000000000000e+00
-3.060121852742015491e+01,0.000000000000000000e+00
-3.058342712129956098e+01,0.000000000000000000e+00
-3.056563571517896705e+01,0.000000000000000000e+00
-3.054784430905837667e+01,0.000000000000000000e+00
-3.053005290293778273e+01,0.000000000000000000e+00
-3.051226149681718880e+01,0.000000000000000000e+00
-3.049447009069659487e+01,0.000000000000000000e+00
-3.047667868457600093e+01,0.000000000000000000e+00
-3.045888727845541055e+01,0.000000000000000000e+00
-3.044109587233481662e+01,0.000000000000000000e+00
-3.042330446621422269e+01,0.000000000000000000e+00
-3.040551306009362875e+01,0.000000000000000000e+00
-3.038772165397303837e+01,0.000000000000000000e+00
-3.036993024785244444e+01,0.000000000000000000e+00
-3.035213884173185050e+01,0.000000000000000000e+00
-3.033434743561125657e+01,0.000000000000000000e+00
-3.031655602949066264e+01,0.000000000000000000e+00
-3.029876462337007226e+01,0.000000000000000000e+00
-3.028097321724947832e+01,0.000000000000000000e+00
-3.026318181112888439e+01,0.000000000000000000e+00
-3.024539040500829401e+01,0.000000000000000000e+00
-3.022759899888770008e+01,0.000000000000000000e+00
-3.020980759276710614e+01,0.000000000000000000e+00
-3.019201618664651221e+01,0.000000000000000000e+00
-3.017422478052591828e+01,0.000000000000000000e+00
-3.015643337440532434e+01,0.000000000000000000e+00
-3.013864196828473396e+01,0.000000000000000000e+00
-3.012085056216414003e+01,0.000000000000000000e+00
-3.010305915604354610e+01,0.000000000000000000e+00
-3.008526774992295572e+01,0.000000000000000000e+00
-3.006747634380236178e+01,0.000000000000000000e+00
-3.004968493768176785e+01,0.000000000000000000e+00
-3.003189353156117392e+01,0.000000000000000000e+00
-3.001410212544057998e+01,0.000000000000000000e+00
-2.999631071931998960e+01,0.000000000000000000e+00
-2.997851931319939567e+01,0.000000000000000000e+00
-2.996072790707880173e+01,0.000000000000000000e+00
-2.994293650095820780e+01,0.000000000000000000e+00
-2.992514509483761742e+01,0.000000000000000000e+00
-2.990735368871702349e+01,0.000000000000000000e+00
-2.988956228259642955e+01,0.000000000000000000e+00
-2.987177087647583562e+01,0.000000000000000000e+00
-2.985397947035524169e+01,0.000000000000000000e+00
-2.983618806423465131e+01,0.000000000000000000e+00
-2.981839665811405737e+01,0.000000000000000000e+00
-2.980060525199346344e+01,0.000000000000000000e+00
-2.978281384587287306e+01,0.000000000000000000e+00
-2.976502243975227913e+01,0.000000000000000000e+00
-2.974723103363168519e+01,0.000000000000000000e+00
-2.972943962751109126e+01,0.000000000000000000e+00
-2.971164822139049733e+01,0.000000000000000000e+00
-2.969385681526990339e+01,0.000000000000000000e+00
-2.967606540914931301e+01,0.000000000000000000e+00
-2.965827400302871908e+01,0.000000000000000000e+00
-2.964048259690812515e+01,0.000000000000000000e+00
-2.962269119078753477e+01,0.000000000000000000e+00
-2.960489978466694083e+01,0.000000000000000000e+00
-2.958710837854634690e+01,0.000000000000000000e+00
-2.956931697242575297e+01,0.000000000000000000e+00
-2.955152556630515903e+01,0.000000000000000000e+00
-2.953373416018456865e+01,0.000000000000000000e+00
-2.951594275406397472e+01,0.000000000000000000e+00
-2.949815134794338078e+01,0.000000000000000000e+00
-2.948035994182279040e+01,0.000000000000000000e+00
-2.946256853570219647e+01,0.000000000000000000e+00
-2.944477712958160254e+01,0.000000000000000000e+00
-2.942698572346100860e+01,0.000000000000000000e+00
-2.940919431734041467e+01,0.000000000000000000e+00
-2.939140291121982074e+01,0.000000000000000000e+00
-2.937361150509923036e+01,0.000000000000000000e+00
-2.935582009897863642e+01,0.000000000000000000e+00
-2.933802869285804249e+01,0.000000000000000000e+00
-2.932023728673745211e+01,0.000000000000000000e+00
-2.930244588061685818e+01,0.000000000000000000e+00
-2.928465447449626424e+01,0.000000000000000000e+00
-2.926686306837567031e+01,0.000000000000000000e+00
-2.924907166225507638e+01,0.000000000000000000e+00
-2.923128025613448600e+01,0.000000000000000000e+00
-2.921348885001389206e+01,0.000000000000000000e+00
-2.919569744389329813e+01,0.000000000000000000e+00
-2.917790603777270420e+01,0.000000000000000000e+00
-2.916011463165211381e+01,0.000000000000000000e+00
-2.914232322553151988e+01,0.000000000000000000e+00
-2.912453181941092595e+01,0.000000000000000000e+00
-2.910674041329033201e+01,0.000000000000000000e+00
-2.908894900716973808e+01,0.000000000000000000e+00
-2.907115760104914770e+01,0.000000000000000000e+00
-2.905336619492855377e+01,0.000000000000000000e+00
-2.903557478880795983e+01,0.000000000000000000e+00
-2.901778338268736945e+01,0.000000000000000000e+00
-2.899999197656677552e+01,0.000000000000000000e+00
-2.898220057044618159e+01,0.000000000000000000e+00
-2.896440916432558765e+01,0.000000000000000000e+00
-2.894661775820499372e+01,0.000000000000000000e+00
-2.892882635208439979e+01,0.000000000000000000e+00
-2.891103494596380941e+01,0.000000000000000000e+00
-2.889324353984321547e+01,0.000000000000000000e+00
-2.887545213372262154e+01,0.000000000000000000e+00
-2.885766072760203116e+01,0.000000000000000000e+00
-2.883986932148143723e+01,0.000000000000000000e+00
-2.882207791536084329e+01,0.000000000000000000e+00
-2.880428650924024936e+01,0.000000000000000000e+00
-2.878649510311965543e+01,0.000000000000000000e+00
-2.876870369699906504e+01,0.000000000000000000e+00
-2.875091229087847111e+01,1.703894188664091557e-07
-2.873312088475787718e+01,1.806748757715907317e-06
-2.871532947863728324e+01,6.538220012185653206e-06
-2.869753807251669286e+01,2.092027316724442916e-05
-2.867974666639609893e+01,5.917671321397842638e-05
-2.866195526027550500e+01,1.479563042959955237e-04
-2.864416385415491106e+01,3.269146440753307016e-04
